#
# Wall-normal profile of the co-variances <ui*uj> 
# 
# Simulation parameters:
#
# Lx/h = 0.75			streamwise domain extent
# Ly/h = 2.0			wall-normal domain extent
# Lz/h = 0.4			spanwise domain extent
# nx = 28			number of Fourier modes in the streamwise direction
# ny = 300			number of collocation points in the wall-normal direction
# nz = 30			number of Fourier modes in the spanwise direction
# dt/(h/Ub) = 0.0078		constant timestep
#
# Reb  = Ub*h/nu = 6891.6	Bulk Reynolds number        (imposed)
# Retau = utau*h/nu = 363.6	Friction Reynolds number    (result)
# 
# All qunatities are normalised by the bulk velocity Ub and 
# the channel semi-height h
#
#
y 	uu 	vv 	ww 	uv 	uw 	vw
0 	7.64548e-39 	0 	2.40476e-38 	0 	8.07895e-41 	0
0.0020146 	0.000280251 	5.36522e-08 	5.19079e-05 	-1.3149e-08 	-9.83779e-07 	4.96682e-09
0.00406593 	0.00113199 	7.32659e-07 	0.000179207 	-1.20016e-07 	-4.04764e-06 	2.80564e-08
0.00615457 	0.00255809 	3.17574e-06 	0.000348892 	-4.48165e-07 	-9.26709e-06 	5.29085e-08
0.00828114 	0.0045195 	8.63144e-06 	0.000538678 	-1.12302e-06 	-1.65416e-05 	3.48431e-08
0.0104462 	0.00692114 	1.82074e-05 	0.000734346 	-2.20082e-06 	-2.55577e-05 	-8.12386e-08
0.0126504 	0.00961763 	3.27767e-05 	0.000928081 	-3.63739e-06 	-3.57411e-05 	-3.38699e-07
0.0148944 	0.0124349 	5.29672e-05 	0.00111648 	-5.32263e-06 	-4.62444e-05 	-7.48171e-07
0.0171788 	0.0151982 	7.9189e-05 	0.00129866 	-7.13752e-06 	-5.60397e-05 	-1.27859e-06
0.0195041 	0.0177556 	0.000111675 	0.00147466 	-8.98908e-06 	-6.41052e-05 	-1.86889e-06
0.0218711 	0.0199939 	0.00015052 	0.00164444 	-1.08216e-05 	-6.9614e-05 	-2.45162e-06
0.0242804 	0.0218431 	0.000195704 	0.00180741 	-1.2619e-05 	-7.2067e-05 	-2.9731e-06
0.0267326 	0.023274 	0.000247119 	0.00196254 	-1.44036e-05 	-7.13628e-05 	-3.40128e-06
0.0292284 	0.0242905 	0.000304574 	0.00210854 	-1.62258e-05 	-6.78009e-05 	-3.72208e-06
0.0317685 	0.0249209 	0.000367813 	0.00224418 	-1.81342e-05 	-6.19978e-05 	-3.93044e-06
0.0343535 	0.0252081 	0.000436519 	0.00236846 	-2.01357e-05 	-5.47314e-05 	-4.02202e-06
0.036984 	0.0252024 	0.000510325 	0.00248076 	-2.21676e-05 	-4.67669e-05 	-3.98855e-06
0.0396608 	0.0249561 	0.000588828 	0.00258091 	-2.40991e-05 	-3.87224e-05 	-3.81748e-06
0.0423846 	0.0245189 	0.000671593 	0.00266919 	-2.57691e-05 	-3.0997e-05 	-3.49768e-06
0.045156 	0.023936 	0.000758167 	0.00274637 	-2.70433e-05 	-2.37548e-05 	-3.03051e-06
0.0479757 	0.0232465 	0.000848083 	0.00281366 	-2.78624e-05 	-1.69574e-05 	-2.43989e-06
0.0508444 	0.0224831 	0.000940856 	0.00287254 	-2.8248e-05 	-1.04516e-05 	-1.77152e-06
0.0537628 	0.0216729 	0.00103597 	0.00292465 	-2.82617e-05 	-4.10853e-06 	-1.07741e-06
0.0567317 	0.0208377 	0.00113288 	0.00297162 	-2.79558e-05 	2.03354e-06 	-3.93453e-07
0.0597517 	0.0199955 	0.00123098 	0.00301501 	-2.73628e-05 	7.7118e-06 	2.74752e-07
0.0628235 	0.0191609 	0.00132964 	0.00305622 	-2.65284e-05 	1.25109e-05 	9.51112e-07
0.0659479 	0.0183456 	0.00142822 	0.0030964 	-2.55486e-05 	1.59906e-05 	1.67849e-06
0.0691256 	0.0175584 	0.00152608 	0.0031365 	-2.45749e-05 	1.77853e-05 	2.50242e-06
0.0723573 	0.0168057 	0.0016226 	0.00317721 	-2.37807e-05 	1.77061e-05 	3.45207e-06
0.0756437 	0.016091 	0.0017172 	0.00321905 	-2.33026e-05 	1.59088e-05 	4.53092e-06
0.0789856 	0.015416 	0.00180928 	0.00326236 	-2.31891e-05 	1.30337e-05 	5.72497e-06
0.0823836 	0.0147809 	0.00189831 	0.00330733 	-2.33925e-05 	1.01155e-05 	7.0148e-06
0.0858386 	0.0141852 	0.00198374 	0.00335404 	-2.38118e-05 	8.2446e-06 	8.37812e-06
0.0893512 	0.0136278 	0.00206507 	0.00340245 	-2.43562e-05 	8.20083e-06 	9.79006e-06
0.0929222 	0.0131073 	0.00214188 	0.00345236 	-2.49944e-05 	1.02647e-05 	1.1241e-05
0.0965523 	0.0126223 	0.00221379 	0.00350322 	-2.57787e-05 	1.42369e-05 	1.27594e-05
0.100242 	0.0121708 	0.00228056 	0.00355399 	-2.68353e-05 	1.95514e-05 	1.43872e-05
0.103993 	0.0117507 	0.00234204 	0.00360329 	-2.8314e-05 	2.53821e-05 	1.61209e-05
0.107805 	0.0113593 	0.00239826 	0.00364959 	-3.03158e-05 	3.08201e-05 	1.78841e-05
0.111679 	0.0109935 	0.00244934 	0.00369147 	-3.28431e-05 	3.51195e-05 	1.95509e-05
0.115616 	0.0106505 	0.00249545 	0.00372803 	-3.57985e-05 	3.7842e-05 	2.09996e-05
0.119616 	0.010328 	0.0025368 	0.00375911 	-3.90284e-05 	3.88694e-05 	2.21613e-05
0.12368 	0.0100254 	0.00257355 	0.00378517 	-4.23653e-05 	3.83212e-05 	2.30245e-05
0.12781 	0.00974296 	0.00260586 	0.00380681 	-4.56409e-05 	3.63402e-05 	2.36048e-05
0.132005 	0.00948088 	0.00263384 	0.00382469 	-4.86797e-05 	3.2914e-05 	2.39356e-05
0.136267 	0.0092386 	0.00265768 	0.00383955 	-5.12944e-05 	2.80103e-05 	2.41006e-05
0.140596 	0.00901503 	0.00267754 	0.00385207 	-5.33065e-05 	2.19099e-05 	2.42461e-05
0.144993 	0.00880868 	0.00269362 	0.00386245 	-5.4579e-05 	1.53e-05 	2.45162e-05
0.149458 	0.00861806 	0.00270612 	0.00387039 	-5.5037e-05 	9.08006e-06 	2.49565e-05
0.153993 	0.00844217 	0.00271523 	0.00387509 	-5.46667e-05 	4.11924e-06 	2.54855e-05
0.158597 	0.0082803 	0.00272117 	0.00387534 	-5.35048e-05 	1.11693e-06 	2.59585e-05
0.163273 	0.0081313 	0.00272411 	0.00386999 	-5.16256e-05 	4.8505e-07 	2.62443e-05
0.168019 	0.00799426 	0.00272423 	0.0038588 	-4.9147e-05 	2.25766e-06 	2.62803e-05
0.172838 	0.00786973 	0.00272164 	0.00384268 	-4.62358e-05 	6.14784e-06 	2.61195e-05
0.177729 	0.00775888 	0.00271646 	0.00382298 	-4.30649e-05 	1.1507e-05 	2.59115e-05
0.182694 	0.00766149 	0.00270889 	0.00380061 	-3.973e-05 	1.74335e-05 	2.57574e-05
0.187733 	0.00757519 	0.00269925 	0.00377603 	-3.62258e-05 	2.29705e-05 	2.55545e-05
0.192846 	0.00749652 	0.00268795 	0.00374919 	-3.25392e-05 	2.74427e-05 	2.50318e-05
0.198035 	0.00742199 	0.0026754 	0.00371982 	-2.87357e-05 	3.10528e-05 	2.38896e-05
0.203299 	0.00734871 	0.00266199 	0.00368783 	-2.49659e-05 	3.48159e-05 	2.19539e-05
0.20864 	0.00727513 	0.00264803 	0.00365352 	-2.14399e-05 	3.93407e-05 	1.93152e-05
0.214058 	0.00720233 	0.00263374 	0.00361775 	-1.83912e-05 	4.37378e-05 	1.62881e-05
0.219554 	0.00713374 	0.00261925 	0.00358158 	-1.60413e-05 	4.62021e-05 	1.32133e-05
0.225128 	0.00707218 	0.00260469 	0.0035456 	-1.4636e-05 	4.55551e-05 	1.02763e-05
0.230781 	0.00701737 	0.00259029 	0.00350982 	-1.43696e-05 	4.20356e-05 	7.56332e-06
0.236512 	0.00696674 	0.00257632 	0.00347424 	-1.52468e-05 	3.66655e-05 	5.20226e-06
0.242324 	0.00691832 	0.00256301 	0.00343922 	-1.70737e-05 	3.02265e-05 	3.33238e-06
0.248216 	0.00687158 	0.00255053 	0.00340507 	-1.95178e-05 	2.33204e-05 	2.10104e-06
0.254189 	0.00682553 	0.00253889 	0.00337198 	-2.2323e-05 	1.63199e-05 	1.55779e-06
0.260242 	0.00677823 	0.00252808 	0.00333998 	-2.54227e-05 	9.32703e-06 	1.61384e-06
0.266378 	0.0067284 	0.00251804 	0.00330851 	-2.87212e-05 	3.00815e-06 	2.19493e-06
0.272595 	0.00667587 	0.00250868 	0.00327631 	-3.19743e-05 	-1.67322e-06 	3.05934e-06
0.278895 	0.00662095 	0.00249977 	0.00324155 	-3.49713e-05 	-4.85876e-06 	3.81757e-06
0.285278 	0.0065643 	0.00249094 	0.00320297 	-3.75732e-05 	-7.37893e-06 	4.20231e-06
0.291744 	0.00650607 	0.00248182 	0.00316106 	-3.96574e-05 	-9.19911e-06 	4.1345e-06
0.298293 	0.0064461 	0.00247208 	0.00311768 	-4.10359e-05 	-9.63031e-06 	3.5739e-06
0.304926 	0.00638471 	0.00246149 	0.00307499 	-4.15678e-05 	-8.61712e-06 	2.46604e-06
0.311643 	0.00632152 	0.00244991 	0.00303424 	-4.13902e-05 	-6.27004e-06 	7.89611e-07
0.318444 	0.00625543 	0.00243714 	0.00299557 	-4.08689e-05 	-2.0237e-06 	-1.34627e-06
0.325329 	0.00618474 	0.00242278 	0.00295899 	-4.02621e-05 	3.97224e-06 	-3.8868e-06
0.3323 	0.00610863 	0.0024064 	0.00292531 	-3.94649e-05 	1.0425e-05 	-6.79743e-06
0.339355 	0.00602841 	0.00238777 	0.00289546 	-3.83427e-05 	1.59846e-05 	-9.72503e-06
0.346494 	0.00594579 	0.0023669 	0.00286891 	-3.69971e-05 	1.92818e-05 	-1.22521e-05
0.353719 	0.00586189 	0.002344 	0.00284333 	-3.57569e-05 	1.9626e-05 	-1.41302e-05
0.361029 	0.00577694 	0.00231923 	0.00281607 	-3.49598e-05 	1.77357e-05 	-1.51704e-05
0.368424 	0.00569232 	0.00229266 	0.00278581 	-3.47632e-05 	1.50459e-05 	-1.53624e-05
0.375904 	0.00561083 	0.00226432 	0.00275291 	-3.51069e-05 	1.28045e-05 	-1.49426e-05
0.383469 	0.00553377 	0.00223425 	0.00271753 	-3.55747e-05 	1.16526e-05 	-1.41869e-05
0.391118 	0.00545948 	0.00220262 	0.00267951 	-3.54181e-05 	1.10277e-05 	-1.31623e-05
0.398853 	0.00538514 	0.0021698 	0.00264001 	-3.44434e-05 	8.74342e-06 	-1.16862e-05
0.406672 	0.00530892 	0.00213637 	0.00259991 	-3.32511e-05 	3.68765e-06 	-9.4982e-06
0.414576 	0.00522954 	0.00210302 	0.00255832 	-3.22907e-05 	-2.05061e-06 	-6.77895e-06
0.422564 	0.00514653 	0.00207025 	0.00251474 	-3.15982e-05 	-5.28267e-06 	-4.0353e-06
0.430636 	0.00506098 	0.00203804 	0.00247014 	-3.09938e-05 	-4.71592e-06 	-1.65044e-06
0.438791 	0.00497532 	0.00200589 	0.00242552 	-3.02915e-05 	-1.54964e-06 	3.62339e-07
0.44703 	0.00489167 	0.00197328 	0.00238224 	-2.95889e-05 	2.45911e-06 	1.90414e-06
0.455351 	0.00480935 	0.00193998 	0.00234204 	-2.90453e-05 	6.29563e-06 	2.99992e-06
0.463755 	0.00472567 	0.00190609 	0.00230399 	-2.84537e-05 	9.02402e-06 	4.41046e-06
0.472241 	0.0046402 	0.00187191 	0.00226343 	-2.76035e-05 	1.02651e-05 	6.63893e-06
0.480809 	0.00455465 	0.00183751 	0.00221747 	-2.64536e-05 	1.00314e-05 	9.56707e-06
0.489457 	0.00447231 	0.00180251 	0.00216833 	-2.51063e-05 	8.73575e-06 	1.2806e-05
0.498186 	0.0043962 	0.00176637 	0.0021185 	-2.37976e-05 	6.96237e-06 	1.59284e-05
0.506994 	0.00432804 	0.00172889 	0.0020694 	-2.22997e-05 	4.51885e-06 	1.87678e-05
0.515881 	0.00426957 	0.00169044 	0.0020207 	-2.03295e-05 	1.49748e-06 	2.11072e-05
0.524847 	0.00422119 	0.00165162 	0.00197136 	-1.82375e-05 	-1.40737e-06 	2.26727e-05
0.53389 	0.00417872 	0.00161276 	0.00192107 	-1.64891e-05 	-3.29297e-06 	2.34307e-05
0.543009 	0.00413524 	0.00157389 	0.0018714 	-1.52436e-05 	-4.58935e-06 	2.34283e-05
0.552205 	0.0040874 	0.00153503 	0.00182421 	-1.47159e-05 	-7.42667e-06 	2.27711e-05
0.561475 	0.00403512 	0.00149656 	0.0017791 	-1.49392e-05 	-1.41727e-05 	2.19563e-05
0.570819 	0.00397837 	0.00145932 	0.00173415 	-1.53198e-05 	-2.5033e-05 	2.09782e-05
0.580236 	0.00391615 	0.00142406 	0.0016873 	-1.54662e-05 	-3.73493e-05 	1.92278e-05
0.589724 	0.00384758 	0.00139087 	0.0016377 	-1.55938e-05 	-4.96911e-05 	1.67352e-05
0.599284 	0.00377438 	0.00135897 	0.0015875 	-1.57546e-05 	-6.0864e-05 	1.408e-05
0.608913 	0.0036985 	0.00132716 	0.00153864 	-1.57947e-05 	-6.80143e-05 	1.15893e-05
0.618611 	0.00362006 	0.00129464 	0.00149175 	-1.55868e-05 	-6.87947e-05 	9.29154e-06
0.628375 	0.00354059 	0.00126128 	0.00144768 	-1.49812e-05 	-6.324e-05 	7.19844e-06
0.638206 	0.0034612 	0.00122726 	0.00140547 	-1.39183e-05 	-5.38252e-05 	5.44328e-06
0.648101 	0.00338323 	0.00119256 	0.00136299 	-1.25775e-05 	-4.36179e-05 	3.96362e-06
0.658059 	0.00330914 	0.00115713 	0.00131932 	-1.13445e-05 	-3.45493e-05 	2.61381e-06
0.66808 	0.00323745 	0.00112102 	0.00127561 	-1.05113e-05 	-2.76055e-05 	1.43106e-06
0.67816 	0.00316435 	0.00108434 	0.00123273 	-1.0189e-05 	-2.38718e-05 	4.45457e-07
0.6883 	0.00308817 	0.00104723 	0.00118982 	-1.03302e-05 	-2.43017e-05 	-2.11826e-07
0.698497 	0.00300845 	0.00100982 	0.00114636 	-1.07759e-05 	-2.72352e-05 	-3.98426e-07
0.70875 	0.00292521 	0.000972382 	0.0011027 	-1.12313e-05 	-2.93204e-05 	-6.79388e-08
0.719056 	0.00283836 	0.000935142 	0.00105886 	-1.13965e-05 	-2.83399e-05 	4.86979e-07
0.729416 	0.00274975 	0.00089818 	0.00101462 	-1.10605e-05 	-2.42978e-05 	7.13396e-07
0.739826 	0.00266102 	0.000861556 	0.000969755 	-1.03688e-05 	-1.92075e-05 	3.29212e-07
0.750286 	0.00257167 	0.000825362 	0.00092402 	-9.70247e-06 	-1.53855e-05 	-5.9094e-07
0.760793 	0.00248156 	0.00078974 	0.000877524 	-9.08357e-06 	-1.3563e-05 	-1.86606e-06
0.771345 	0.00239185 	0.000754939 	0.00083075 	-8.25132e-06 	-1.27564e-05 	-3.16494e-06
0.781941 	0.0023039 	0.000721216 	0.00078492 	-7.1355e-06 	-1.14779e-05 	-4.28773e-06
0.79258 	0.00221753 	0.00068866 	0.000741551 	-5.9704e-06 	-9.42788e-06 	-5.15311e-06
0.803258 	0.00213062 	0.000657254 	0.000701305 	-4.99581e-06 	-7.66073e-06 	-5.58873e-06
0.813974 	0.00204265 	0.000626924 	0.000663232 	-4.19758e-06 	-6.76247e-06 	-5.62317e-06
0.824726 	0.00195654 	0.000597569 	0.000626013 	-3.53616e-06 	-6.36971e-06 	-5.47916e-06
0.835513 	0.00187404 	0.000569093 	0.00058923 	-3.07807e-06 	-5.94386e-06 	-5.35968e-06
0.846332 	0.00179405 	0.000541492 	0.000552842 	-2.88131e-06 	-5.10061e-06 	-5.36677e-06
0.857181 	0.00171631 	0.000514887 	0.000516647 	-3.09993e-06 	-4.02566e-06 	-5.46463e-06
0.868058 	0.00164176 	0.000489437 	0.000480948 	-3.88538e-06 	-2.98758e-06 	-5.49791e-06
0.878961 	0.00157134 	0.000465279 	0.000446923 	-5.1032e-06 	-1.77763e-06 	-5.30526e-06
0.889888 	0.00150563 	0.000442598 	0.000415202 	-6.33588e-06 	-1.99694e-07 	-4.89394e-06
0.900836 	0.00144391 	0.000421752 	0.000385545 	-7.15606e-06 	1.49077e-06 	-4.39542e-06
0.911805 	0.00138502 	0.000403216 	0.000357932 	-7.44888e-06 	2.93307e-06 	-3.85988e-06
0.922791 	0.00132943 	0.000387403 	0.000332302 	-7.33904e-06 	3.81818e-06 	-3.21198e-06
0.933792 	0.00127878 	0.000374496 	0.000308557 	-6.90776e-06 	4.13822e-06 	-2.35962e-06
0.944806 	0.00123421 	0.000364389 	0.000287662 	-6.29667e-06 	4.37463e-06 	-1.34067e-06
0.955832 	0.001196 	0.000356748 	0.000271157 	-5.71926e-06 	4.85859e-06 	-3.26841e-07
0.966866 	0.00116403 	0.000351148 	0.000259969 	-5.24813e-06 	5.34525e-06 	5.16738e-07
0.977907 	0.00113925 	0.000347242 	0.000253806 	-4.88113e-06 	5.50413e-06 	1.10995e-06
0.988952 	0.00112345 	0.000344894 	0.000251171 	-4.65222e-06 	5.27883e-06 	1.42121e-06
1 	0.00111801 	0.000344106 	0.000250494 	-4.57624e-06 	5.08035e-06 	1.50521e-06
1.01105 	0.00113316 	0.000343946 	0.000254065 	2.10804e-05 	1.01982e-05 	8.49485e-07
1.02209 	0.00115749 	0.000345307 	0.000258944 	4.64567e-05 	1.48003e-05 	9.65114e-08
1.03313 	0.00118946 	0.000348177 	0.000266382 	7.14146e-05 	1.7851e-05 	-8.67965e-07
1.04417 	0.0012281 	0.000352658 	0.000277694 	9.59809e-05 	1.9295e-05 	-2.10622e-06
1.05519 	0.00127291 	0.000359008 	0.000293293 	0.00012036 	2.00282e-05 	-3.50539e-06
1.06621 	0.00132427 	0.000367604 	0.000312947 	0.00014495 	2.07389e-05 	-4.73306e-06
1.07721 	0.00138259 	0.000378831 	0.000335984 	0.000170175 	2.10363e-05 	-5.50883e-06
1.0882 	0.00144645 	0.000392922 	0.000361449 	0.000196056 	2.01901e-05 	-5.83105e-06
1.09916 	0.00151269 	0.000409849 	0.000388585 	0.000222372 	1.8267e-05 	-5.77111e-06
1.11011 	0.00157979 	0.000429366 	0.00041699 	0.000249308 	1.54204e-05 	-5.42562e-06
1.12104 	0.00164915 	0.000451143 	0.000447365 	0.000277054 	1.11573e-05 	-4.9571e-06
1.13194 	0.00172235 	0.000474966 	0.0004803 	0.000305081 	5.5095e-06 	-4.40914e-06
1.14282 	0.0017994 	0.000500753 	0.00051412 	0.000332552 	-9.22402e-07 	-3.86535e-06
1.15367 	0.00187937 	0.000528328 	0.000546538 	0.000359032 	-7.43734e-06 	-3.51314e-06
1.16449 	0.00196124 	0.000557308 	0.000577384 	0.000384612 	-1.32624e-05 	-3.32112e-06
1.17527 	0.00204448 	0.000587273 	0.000608222 	0.000409684 	-1.76643e-05 	-3.02341e-06
1.18603 	0.0021284 	0.000617966 	0.000640727 	0.000434546 	-2.02912e-05 	-2.3662e-06
1.19674 	0.00221052 	0.000649293 	0.000675711 	0.00045919 	-2.18271e-05 	-1.19307e-06
1.20742 	0.00228783 	0.000681292 	0.000713216 	0.000483556 	-2.32615e-05 	6.73476e-07
1.21806 	0.00236041 	0.000714081 	0.000753554 	0.000507972 	-2.48741e-05 	3.26899e-06
1.22865 	0.00243118 	0.000747712 	0.000797107 	0.000533062 	-2.63742e-05 	6.23694e-06
1.23921 	0.00250242 	0.000782117 	0.000842603 	0.000559322 	-2.82728e-05 	9.08303e-06
1.24971 	0.00257586 	0.000817101 	0.000887817 	0.000586945 	-3.30403e-05 	1.11324e-05
1.26017 	0.00265377 	0.00085246 	0.000931939 	0.00061594 	-4.28072e-05 	1.1695e-05
1.27058 	0.00273774 	0.000888133 	0.000976192 	0.000646253 	-5.57651e-05 	1.07251e-05
1.28094 	0.00282797 	0.000924189 	0.00102156 	0.000677789 	-6.7342e-05 	8.48548e-06
1.29125 	0.00292212 	0.000960728 	0.00106798 	0.000710084 	-7.41999e-05 	5.26931e-06
1.3015 	0.00301716 	0.000997783 	0.00111509 	0.00074215 	-7.57576e-05 	1.75899e-06
1.3117 	0.00311173 	0.0010352 	0.00116144 	0.000773051 	-7.50437e-05 	-1.48687e-06
1.32184 	0.00320348 	0.00107273 	0.00120451 	0.000802282 	-7.73809e-05 	-4.37217e-06
1.33192 	0.00329131 	0.00111014 	0.00124343 	0.00082958 	-8.42711e-05 	-7.02102e-06
1.34194 	0.0033767 	0.00114695 	0.00128113 	0.000854856 	-9.21498e-05 	-9.53965e-06
1.3519 	0.00346278 	0.00118278 	0.00132116 	0.000879101 	-9.77537e-05 	-1.17571e-05
1.36179 	0.0035482 	0.00121754 	0.00136419 	0.000903905 	-0.000100403 	-1.32308e-05
1.37162 	0.0036284 	0.00125133 	0.00140866 	0.000930126 	-9.89206e-05 	-1.31958e-05
1.38139 	0.00370314 	0.0012841 	0.00145399 	0.000957631 	-9.06702e-05 	-1.11879e-05
1.39109 	0.00377421 	0.00131567 	0.00150012 	0.000985515 	-7.44207e-05 	-7.27464e-06
1.40072 	0.00384256 	0.00134622 	0.00154731 	0.00101293 	-5.20026e-05 	-1.63451e-06
1.41028 	0.00391006 	0.00137671 	0.00159668 	0.00103943 	-2.86856e-05 	5.30224e-06
1.41976 	0.00397503 	0.0014084 	0.00164652 	0.00106487 	-8.56538e-06 	1.28366e-05
1.42918 	0.00403504 	0.00144198 	0.00169459 	0.00108958 	9.02991e-06 	1.99394e-05
1.43853 	0.00408968 	0.00147721 	0.00174235 	0.00111409 	2.43566e-05 	2.57288e-05
1.4478 	0.00413775 	0.00151346 	0.00179296 	0.00113804 	3.53611e-05 	3.01734e-05
1.45699 	0.00417644 	0.00155005 	0.0018479 	0.0011606 	4.21269e-05 	3.35195e-05
1.46611 	0.00420316 	0.00158669 	0.00190599 	0.00118112 	4.53731e-05 	3.58703e-05
1.47515 	0.0042224 	0.00162334 	0.00196434 	0.00119921 	4.55906e-05 	3.7576e-05
1.48412 	0.00424506 	0.00165991 	0.00202038 	0.00121544 	4.39712e-05 	3.87493e-05
1.49301 	0.00427895 	0.00169606 	0.00207377 	0.00123124 	4.09866e-05 	3.90854e-05
1.50181 	0.00432506 	0.00173136 	0.00212594 	0.00124737 	3.67205e-05 	3.82888e-05
1.51054 	0.00438093 	0.00176567 	0.00217851 	0.00126382 	3.21601e-05 	3.59746e-05
1.51919 	0.00444698 	0.00179928 	0.00223127 	0.00128081 	2.8248e-05 	3.18636e-05
1.52776 	0.00452623 	0.00183288 	0.0022816 	0.00129907 	2.47932e-05 	2.64764e-05
1.53624 	0.0046179 	0.00186724 	0.00232711 	0.0013193 	2.03153e-05 	2.08477e-05
1.54465 	0.00471658 	0.00190288 	0.00236825 	0.00134184 	1.31316e-05 	1.55479e-05
1.55297 	0.00481693 	0.00193973 	0.00240795 	0.00136646 	2.6093e-06 	1.02047e-05
1.56121 	0.00491529 	0.00197725 	0.00244898 	0.00139219 	-9.37023e-06 	4.33457e-06
1.56936 	0.00500819 	0.00201473 	0.00249318 	0.0014178 	-1.7615e-05 	-1.56826e-06
1.57744 	0.00509395 	0.00205183 	0.00254218 	0.00144248 	-1.78353e-05 	-7.03452e-06
1.58542 	0.00517199 	0.00208879 	0.00259409 	0.00146611 	-1.16514e-05 	-1.21418e-05
1.59333 	0.00524402 	0.00212587 	0.00264506 	0.0014891 	-3.93861e-06 	-1.6708e-05
1.60115 	0.00531391 	0.00216291 	0.00269373 	0.00151212 	1.58593e-06 	-2.04748e-05
1.60888 	0.00538538 	0.00219933 	0.00274083 	0.00153596 	3.71176e-06 	-2.3683e-05
1.61653 	0.00545928 	0.00223445 	0.00278601 	0.00156123 	2.89959e-06 	-2.67025e-05
1.6241 	0.00553573 	0.00226774 	0.0028292 	0.00158761 	1.10351e-06 	-2.95226e-05
1.63158 	0.00561508 	0.00229906 	0.00287201 	0.00161404 	3.59668e-07 	-3.22036e-05
1.63897 	0.00569671 	0.00232857 	0.00291436 	0.0016393 	9.1515e-07 	-3.45271e-05
1.64628 	0.00577962 	0.00235644 	0.00295373 	0.00166229 	5.31108e-07 	-3.61798e-05
1.65351 	0.00586278 	0.00238264 	0.0029884 	0.00168278 	-3.77431e-06 	-3.70007e-05
1.66065 	0.00594604 	0.00240689 	0.0030198 	0.00170104 	-1.38252e-05 	-3.68481e-05
1.6677 	0.00602863 	0.0024287 	0.00305114 	0.00171739 	-2.90914e-05 	-3.5533e-05
1.67467 	0.00610779 	0.00244763 	0.00308466 	0.00173232 	-4.68202e-05 	-3.31597e-05
1.68156 	0.00618132 	0.00246361 	0.00312073 	0.00174639 	-6.27924e-05 	-3.00143e-05
1.68836 	0.00625035 	0.00247704 	0.00315895 	0.00176 	-7.36777e-05 	-2.61519e-05
1.69507 	0.00631654 	0.0024885 	0.00319974 	0.00177384 	-8.05484e-05 	-2.18356e-05
1.70171 	0.00638003 	0.00249849 	0.00324317 	0.00178886 	-8.52757e-05 	-1.75898e-05
1.70826 	0.00644022 	0.0025074 	0.00328681 	0.0018056 	-8.67701e-05 	-1.37445e-05
